v2	Id(M1)
1.000000000000000e-01	-2.243403e-07
1.050000000000000e-01	-2.108248e-07
1.100000000000000e-01	-1.967894e-07
1.150000000000000e-01	-1.821336e-07
1.200000000000000e-01	-1.667463e-07
1.250000000000000e-01	-1.505042e-07
1.300000000000000e-01	-1.332707e-07
1.350000000000000e-01	-1.148948e-07
1.400000000000000e-01	-9.520913e-08
1.450000000000000e-01	-7.402828e-08
1.500000000000000e-01	-5.114716e-08
1.550000000000001e-01	-2.633877e-08
1.600000000000001e-01	6.480255e-10
1.650000000000001e-01	3.009096e-08
1.700000000000001e-01	6.229712e-08
1.750000000000001e-01	9.760584e-08
1.800000000000001e-01	1.363920e-07
1.850000000000001e-01	1.790694e-07
1.900000000000001e-01	2.260948e-07
1.950000000000001e-01	2.779713e-07
2.000000000000001e-01	3.352533e-07
2.050000000000001e-01	3.985507e-07
2.100000000000001e-01	4.685332e-07
2.150000000000001e-01	5.459357e-07
2.200000000000001e-01	6.315627e-07
2.250000000000001e-01	7.262929e-07
2.300000000000001e-01	8.310843e-07
2.350000000000001e-01	9.469786e-07
2.400000000000001e-01	1.075104e-06
2.450000000000001e-01	1.216681e-06
2.500000000000001e-01	1.373023e-06
2.550000000000001e-01	1.545538e-06
2.600000000000001e-01	1.735731e-06
2.650000000000001e-01	1.945203e-06
2.700000000000001e-01	2.175650e-06
2.750000000000001e-01	2.428857e-06
2.800000000000001e-01	2.706698e-06
2.850000000000001e-01	3.011127e-06
2.900000000000001e-01	3.344169e-06
2.950000000000002e-01	3.707915e-06
3.000000000000002e-01	4.104508e-06
3.050000000000002e-01	4.536132e-06
3.100000000000002e-01	5.004998e-06
3.150000000000002e-01	5.513331e-06
3.200000000000002e-01	6.063355e-06
3.250000000000002e-01	6.657274e-06
3.300000000000002e-01	7.297092e-06
3.350000000000002e-01	7.984795e-06
3.400000000000002e-01	8.722384e-06
3.450000000000002e-01	9.511781e-06
3.500000000000002e-01	1.035481e-05
3.550000000000002e-01	1.125320e-05
3.600000000000002e-01	1.220855e-05
3.650000000000002e-01	1.322236e-05
3.700000000000002e-01	1.429596e-05
3.750000000000002e-01	1.543058e-05
3.800000000000002e-01	1.662731e-05
3.850000000000002e-01	1.788707e-05
3.900000000000002e-01	1.921066e-05
3.950000000000002e-01	2.059875e-05
4.000000000000002e-01	2.205186e-05
4.050000000000002e-01	2.357037e-05
4.100000000000003e-01	2.515455e-05
4.150000000000003e-01	2.680454e-05
4.200000000000003e-01	2.852036e-05
4.250000000000003e-01	3.030193e-05
4.300000000000003e-01	3.214907e-05
4.350000000000003e-01	3.406149e-05
4.400000000000003e-01	3.603884e-05
4.450000000000003e-01	3.808069e-05
4.500000000000003e-01	4.018650e-05
4.550000000000003e-01	4.235574e-05
4.600000000000003e-01	4.458776e-05
4.650000000000003e-01	4.688189e-05
4.700000000000003e-01	4.923744e-05
4.750000000000003e-01	5.165364e-05
4.800000000000003e-01	5.412972e-05
4.850000000000003e-01	5.666490e-05
4.900000000000003e-01	5.925834e-05
4.950000000000003e-01	6.190922e-05
5.000000000000003e-01	6.461672e-05
5.050000000000003e-01	6.737996e-05
5.100000000000003e-01	7.019812e-05
5.150000000000003e-01	7.307034e-05
5.200000000000004e-01	7.599578e-05
5.250000000000004e-01	7.897359e-05
5.300000000000004e-01	8.200295e-05
5.350000000000004e-01	8.508303e-05
5.400000000000004e-01	8.821301e-05
5.450000000000004e-01	9.139210e-05
5.500000000000004e-01	9.461950e-05
5.550000000000004e-01	9.789443e-05
5.600000000000004e-01	1.012161e-04
5.650000000000004e-01	1.045838e-04
5.700000000000004e-01	1.079968e-04
5.750000000000004e-01	1.114543e-04
5.800000000000004e-01	1.149557e-04
5.850000000000004e-01	1.185002e-04
5.900000000000004e-01	1.220871e-04
5.950000000000004e-01	1.257159e-04
6.000000000000004e-01	1.293858e-04
6.050000000000004e-01	1.330961e-04
6.100000000000004e-01	1.368463e-04
6.150000000000004e-01	1.406358e-04
6.200000000000004e-01	1.444639e-04
6.250000000000004e-01	1.483300e-04
6.300000000000004e-01	1.522336e-04
6.350000000000005e-01	1.561741e-04
6.400000000000005e-01	1.601509e-04
6.450000000000005e-01	1.641635e-04
6.500000000000005e-01	1.682114e-04
6.550000000000005e-01	1.722939e-04
6.600000000000005e-01	1.764106e-04
6.650000000000005e-01	1.805611e-04
6.700000000000005e-01	1.847447e-04
6.750000000000005e-01	1.889610e-04
6.800000000000005e-01	1.932095e-04
6.850000000000005e-01	1.974897e-04
6.900000000000005e-01	2.018011e-04
6.950000000000005e-01	2.061434e-04
7.000000000000005e-01	2.105160e-04
7.050000000000005e-01	2.149185e-04
7.100000000000005e-01	2.193504e-04
7.150000000000005e-01	2.238113e-04
7.200000000000005e-01	2.283008e-04
7.250000000000005e-01	2.328184e-04
7.300000000000005e-01	2.373638e-04
7.350000000000005e-01	2.419365e-04
7.400000000000005e-01	2.465361e-04
7.450000000000006e-01	2.511622e-04
7.500000000000006e-01	2.558143e-04
7.550000000000006e-01	2.604923e-04
7.600000000000006e-01	2.651955e-04
7.650000000000006e-01	2.699237e-04
7.700000000000006e-01	2.746764e-04
7.750000000000006e-01	2.794533e-04
7.800000000000006e-01	2.842540e-04
7.850000000000006e-01	2.890782e-04
7.900000000000006e-01	2.939254e-04
7.950000000000006e-01	2.987953e-04
8.000000000000006e-01	3.036877e-04
8.050000000000006e-01	3.086020e-04
8.100000000000006e-01	3.135380e-04
8.150000000000006e-01	3.184953e-04
8.200000000000006e-01	3.234736e-04
8.250000000000006e-01	3.284726e-04
8.300000000000006e-01	3.334918e-04
8.350000000000006e-01	3.385311e-04
8.400000000000006e-01	3.435900e-04
8.450000000000006e-01	3.486682e-04
8.500000000000006e-01	3.537654e-04
8.550000000000006e-01	3.588813e-04
8.600000000000007e-01	3.640155e-04
8.650000000000007e-01	3.691679e-04
8.700000000000007e-01	3.743380e-04
8.750000000000007e-01	3.795256e-04
8.800000000000007e-01	3.847303e-04
8.850000000000007e-01	3.899518e-04
8.900000000000007e-01	3.951899e-04
8.950000000000007e-01	4.004443e-04
9.000000000000007e-01	4.057146e-04
9.050000000000007e-01	4.110007e-04
9.100000000000007e-01	4.163021e-04
9.150000000000007e-01	4.216186e-04
9.200000000000007e-01	4.269500e-04
9.250000000000007e-01	4.322959e-04
9.300000000000007e-01	4.376562e-04
9.350000000000007e-01	4.430304e-04
9.400000000000007e-01	4.484184e-04
9.450000000000007e-01	4.538199e-04
9.500000000000007e-01	4.592346e-04
9.550000000000007e-01	4.646622e-04
9.600000000000007e-01	4.701026e-04
9.650000000000007e-01	4.755553e-04
9.700000000000008e-01	4.810203e-04
9.750000000000008e-01	4.864972e-04
9.800000000000008e-01	4.919859e-04
9.850000000000008e-01	4.974859e-04
9.900000000000008e-01	5.029972e-04
9.950000000000008e-01	5.085194e-04
1.000000000000001e+00	5.140523e-04
1.005000000000001e+00	5.195957e-04
1.010000000000000e+00	5.251495e-04
1.015000000000000e+00	5.307132e-04
1.020000000000000e+00	5.362866e-04
1.025000000000000e+00	5.418697e-04
1.030000000000000e+00	5.474621e-04
1.035000000000000e+00	5.530636e-04
1.040000000000000e+00	5.586740e-04
1.045000000000000e+00	5.642931e-04
1.050000000000000e+00	5.699206e-04
1.054999999999999e+00	5.755564e-04
1.059999999999999e+00	5.812001e-04
1.064999999999999e+00	5.868517e-04
1.069999999999999e+00	5.925110e-04
1.074999999999999e+00	5.981776e-04
1.079999999999999e+00	6.038514e-04
1.084999999999999e+00	6.095322e-04
1.089999999999999e+00	6.152198e-04
1.094999999999999e+00	6.209140e-04
1.099999999999999e+00	6.266147e-04
1.104999999999998e+00	6.323215e-04
1.109999999999998e+00	6.380343e-04
1.114999999999998e+00	6.437529e-04
1.119999999999998e+00	6.494772e-04
1.124999999999998e+00	6.552069e-04
1.129999999999998e+00	6.609418e-04
1.134999999999998e+00	6.666818e-04
1.139999999999998e+00	6.724267e-04
1.144999999999998e+00	6.781763e-04
1.149999999999997e+00	6.839304e-04
1.154999999999997e+00	6.896888e-04
1.159999999999997e+00	6.954515e-04
1.164999999999997e+00	7.012181e-04
1.169999999999997e+00	7.069885e-04
1.174999999999997e+00	7.127626e-04
1.179999999999997e+00	7.185401e-04
1.184999999999997e+00	7.243209e-04
1.189999999999997e+00	7.301049e-04
1.194999999999997e+00	7.358919e-04
1.200000000000000e+00	7.416816e-04
